178.76	0.00000000E0
179.14	0.00000000E0
179.52	0.00000000E0
179.9	0.00000000E0
180.28	0.00000000E0
180.66	0.00000000E0
181.04	0.00000000E0
181.42	0.00000000E0
181.8	0.00000000E0
182.18	0.00000000E0
182.55	0.00000000E0
182.93	0.00000000E0
183.31	0.00000000E0
183.69	0.00000000E0
184.07	0.00000000E0
184.45	0.00000000E0
184.83	0.00000000E0
185.21	0.00000000E0
185.59	0.00000000E0
185.97	0.00000000E0
186.35	0.00000000E0
186.72	0.00000000E0
187.1	0.00000000E0
187.48	0.00000000E0
187.86	0.00000000E0
188.24	0.00000000E0
188.62	0.00000000E0
189	0.00000000E0
189.38	0.00000000E0
189.75	0.00000000E0
190.13	0.00000000E0
190.51	0.00000000E0
190.89	0.00000000E0
191.27	0.00000000E0
191.65	0.00000000E0
192.03	0.00000000E0
192.4	0.00000000E0
192.78	0.00000000E0
193.16	0.00000000E0
193.54	0.00000000E0
193.92	0.00000000E0
194.3	0.00000000E0
194.67	0.00000000E0
195.05	0.00000000E0
195.43	0.00000000E0
195.81	0.00000000E0
196.19	0.00000000E0
196.56	0.00000000E0
196.94	0.00000000E0
197.32	0.00000000E0
197.7	0.00000000E0
198.08	0.00000000E0
198.45	0.00000000E0
198.83	0.00000000E0
199.21	0.00000000E0
199.59	0.00000000E0
199.97	0.00000000E0
200.34	0.00000000E0
200.72	0.00000000E0
201.1	0.00000000E0
201.48	0.00000000E0
201.85	0.00000000E0
202.23	0.00000000E0
202.61	0.00000000E0
202.99	0.00000000E0
203.36	0.00000000E0
203.74	0.00000000E0
204.12	0.00000000E0
204.49	0.00000000E0
204.87	0.00000000E0
205.25	0.00000000E0
205.63	0.00000000E0
206	0.00000000E0
206.38	0.00000000E0
206.76	0.00000000E0
207.14	0.00000000E0
207.51	0.00000000E0
207.89	0.00000000E0
208.27	0.00000000E0
208.64	0.00000000E0
209.02	0.00000000E0
209.4	0.00000000E0
209.77	0.00000000E0
210.15	4.77914492E-8
210.53	4.64280912E-8
210.9	4.52765156E-8
211.28	4.49850752E-8
211.66	4.10204148E-8
212.03	4.05375907E-8
212.41	4.00332957E-8
212.79	4.02359670E-8
213.16	3.79095566E-8
213.54	3.76433365E-8
213.92	3.67916347E-8
214.29	3.48807843E-8
214.67	3.52876285E-8
215.05	3.31964443E-8
215.42	3.30059889E-8
215.8	3.15720629E-8
216.17	3.16527327E-8
216.55	3.08999534E-8
216.93	3.03677068E-8
217.3	2.91250275E-8
217.68	2.87620893E-8
218.05	2.83158552E-8
218.43	2.69528391E-8
218.81	2.70316529E-8
219.18	2.57258003E-8
219.56	2.52093622E-8
219.93	2.51810536E-8
220.31	2.47943443E-8
220.69	2.42129135E-8
221.06	2.38076619E-8
221.44	2.29947115E-8
221.81	2.29006515E-8
222.19	2.23922477E-8
222.56	2.15892602E-8
222.94	2.19955244E-8
223.32	2.13333675E-8
223.69	2.10616889E-8
224.07	2.05385227E-8
224.44	2.01340033E-8
224.82	1.98691326E-8
225.19	1.96362401E-8
225.57	1.91546751E-8
225.94	1.87471791E-8
226.32	1.87166493E-8
226.69	1.82302066E-8
227.07	1.77220894E-8
227.44	1.79034915E-8
227.82	1.71793023E-8
228.19	1.72116707E-8
228.57	1.67757302E-8
228.94	1.66536425E-8
229.32	1.64790210E-8
229.69	1.59907328E-8
230.07	1.56734304E-8
230.44	1.57305298E-8
230.82	1.55974957E-8
231.19	1.52318753E-8
231.57	1.48010364E-8
231.94	1.48994812E-8
232.32	1.46372269E-8
232.69	1.43582081E-8
233.07	1.42761959E-8
233.44	1.39921624E-8
233.82	1.37303614E-8
234.19	1.36467441E-8
234.57	1.34167933E-8
234.94	1.33476062E-8
235.31	1.30242008E-8
235.69	1.29668558E-8
236.06	1.31208867E-8
236.44	1.26800710E-8
236.81	1.25119914E-8
237.19	1.25554639E-8
237.56	1.23747968E-8
237.93	1.23068878E-8
238.31	1.19076061E-8
238.68	1.20349518E-8
239.06	1.17642087E-8
239.43	1.16075047E-8
239.81	1.15718981E-8
240.18	1.13949854E-8
240.55	1.13819242E-8
240.93	1.12889420E-8
241.3	1.11869168E-8
241.67	1.11009764E-8
242.05	1.08344748E-8
242.42	1.08883615E-8
242.8	1.07047334E-8
243.17	1.07039465E-8
243.54	1.05728645E-8
243.92	1.06839327E-8
244.29	1.04723454E-8
244.66	1.02843223E-8
245.04	1.03099871E-8
245.41	1.01901286E-8
245.78	1.00815146E-8
246.16	9.88673325E-9
246.53	9.89893146E-9
246.9	9.77814704E-9
247.28	9.73765859E-9
247.65	9.57751670E-9
248.02	9.51281114E-9
248.4	9.51553783E-9
248.77	9.50860524E-9
249.14	9.18750748E-9
249.52	9.14264143E-9
249.89	8.98768108E-9
250.26	9.01462676E-9
250.64	8.95379747E-9
251.01	8.81873475E-9
251.38	8.78280835E-9
251.75	8.85127369E-9
252.13	8.57493944E-9
252.5	8.41854415E-9
252.87	8.47360939E-9
253.25	8.51576907E-9
253.62	8.27212991E-9
253.99	8.23724940E-9
254.36	8.25710631E-9
254.74	8.07353972E-9
255.11	8.09884587E-9
255.48	7.83319018E-9
255.85	7.95162451E-9
256.23	7.79325529E-9
256.6	7.80231129E-9
256.97	7.63148308E-9
257.34	7.64423588E-9
257.71	7.54355796E-9
258.09	7.75873235E-9
258.46	7.50527502E-9
258.83	7.40327361E-9
259.2	7.30136355E-9
259.58	7.35713640E-9
259.95	7.31650363E-9
260.32	7.34225738E-9
260.69	7.15938936E-9
261.06	7.11838905E-9
261.44	6.91312637E-9
261.81	7.08449079E-9
262.18	6.99979728E-9
262.55	6.95774975E-9
262.92	6.93019255E-9
263.29	6.87664784E-9
263.67	6.75987548E-9
264.04	6.72640918E-9
264.41	6.74250624E-9
264.78	6.79651204E-9
265.15	6.72790872E-9
265.52	6.53376205E-9
265.9	6.55153917E-9
266.27	6.56143508E-9
266.64	6.40512004E-9
267.01	6.39064682E-9
267.38	6.28031946E-9
267.75	6.33496629E-9
268.12	6.28432076E-9
268.5	6.32208044E-9
268.87	6.22504634E-9
269.24	6.17381204E-9
269.61	6.06820739E-9
269.98	6.02719888E-9
270.35	5.96891024E-9
270.72	5.86431143E-9
271.09	5.81055500E-9
271.46	5.82654215E-9
271.83	5.70936585E-9
272.21	5.68324938E-9
272.58	5.63601835E-9
272.95	5.59752894E-9
273.32	5.57043813E-9
273.69	5.59861661E-9
274.06	5.47393460E-9
274.43	5.43735783E-9
274.8	5.32759767E-9
275.17	5.22712889E-9
275.54	5.21308995E-9
275.91	5.12425812E-9
276.28	5.03222434E-9
276.65	5.05107387E-9
277.02	5.06825317E-9
277.39	4.91035644E-9
277.76	4.90029708E-9
278.13	4.94003983E-9
278.5	4.90954286E-9
278.87	4.83266417E-9
279.24	4.81868655E-9
279.61	4.69840768E-9
279.98	4.71715422E-9
280.35	4.67209198E-9
280.72	4.68957138E-9
281.09	4.59604629E-9
281.46	4.58980178E-9
281.83	4.60592647E-9
282.2	4.48892509E-9
282.57	4.48243083E-9
282.94	4.41626998E-9
283.31	4.42420371E-9
283.68	4.44112492E-9
284.05	4.39940684E-9
284.42	4.36255961E-9
284.79	4.32505728E-9
285.16	4.32857634E-9
285.53	4.29169917E-9
285.9	4.17833778E-9
286.27	4.23098457E-9
286.64	4.14263631E-9
287.01	4.20366569E-9
287.38	4.09597165E-9
287.75	4.13832567E-9
288.12	4.08963552E-9
288.49	4.11517086E-9
288.86	4.04756909E-9
289.23	4.06847255E-9
289.59	4.06403331E-9
289.96	4.01315223E-9
290.33	4.02661557E-9
290.7	4.00697925E-9
291.07	3.95226354E-9
291.44	3.97513199E-9
291.81	3.97056017E-9
292.18	3.93489214E-9
292.55	3.95126871E-9
292.91	3.92838114E-9
293.28	3.92567754E-9
293.65	3.92939249E-9
294.02	3.88048384E-9
294.39	3.88513682E-9
294.76	3.87022256E-9
295.13	3.84279559E-9
295.5	3.86488640E-9
295.86	3.81033487E-9
296.23	3.81545586E-9
296.6	3.80319325E-9
296.97	3.77856303E-9
297.34	3.78417945E-9
297.71	3.75731738E-9
298.07	3.74424066E-9
298.44	3.75712496E-9
298.81	3.72247330E-9
299.18	3.72959509E-9
299.55	3.70154230E-9
299.91	3.67143164E-9
300.28	3.65504780E-9
300.65	3.69591396E-9
301.02	3.61564474E-9
301.39	3.58445544E-9
301.75	3.56365881E-9
302.12	3.56576250E-9
302.49	3.53619324E-9
302.86	3.53738550E-9
303.23	3.55017427E-9
303.59	3.54258383E-9
303.96	3.54715431E-9
304.33	3.56088816E-9
304.7	3.46987422E-9
305.06	3.43328688E-9
305.43	3.49099615E-9
305.8	3.50997597E-9
306.17	3.36900913E-9
306.53	3.40878428E-9
306.9	3.41844590E-9
307.27	3.36141250E-9
307.64	3.40369278E-9
308	3.39332540E-9
308.37	3.30764524E-9
308.74	3.36661686E-9
309.11	3.38737670E-9
309.47	3.31364129E-9
309.84	3.32566095E-9
310.21	3.23715167E-9
310.57	3.27548579E-9
310.94	3.24120749E-9
311.31	3.28162695E-9
311.67	3.25020824E-9
312.04	3.23388156E-9
312.41	3.25533098E-9
312.77	3.21864351E-9
313.14	3.25723762E-9
313.51	3.20454635E-9
313.87	3.20345736E-9
314.24	3.19091020E-9
314.61	3.15836132E-9
314.97	3.22193520E-9
315.34	3.23670002E-9
315.71	3.19798258E-9
316.07	3.14429654E-9
316.44	3.11726877E-9
316.81	3.15450604E-9
317.17	3.18599063E-9
317.54	3.18931792E-9
317.91	3.20306480E-9
318.27	3.19021253E-9
318.64	3.18869596E-9
319	3.22972931E-9
319.37	3.25510487E-9
319.74	3.26221285E-9
320.1	3.25611544E-9
320.47	3.28383702E-9
320.83	3.16729614E-9
321.2	3.16339209E-9
321.57	3.12585138E-9
321.93	3.06189632E-9
322.3	3.05353297E-9
322.66	3.00514895E-9
323.03	2.96281754E-9
323.4	2.87697591E-9
323.76	2.87850819E-9
324.13	2.83765709E-9
324.49	2.84600104E-9
324.86	2.77299607E-9
325.22	2.82293410E-9
325.59	2.77373529E-9
325.95	2.78247371E-9
326.32	2.76742847E-9
326.68	2.81826397E-9
327.05	2.82118197E-9
327.42	2.82106330E-9
327.78	2.86770277E-9
328.15	2.85195185E-9
328.51	2.85643485E-9
328.88	2.85297180E-9
329.24	2.82421379E-9
329.61	2.82817549E-9
329.97	2.81624992E-9
330.34	2.78193287E-9
330.7	2.80358710E-9
331.07	2.82407396E-9
331.43	2.81557599E-9
331.8	2.77909733E-9
332.16	2.80792369E-9
332.52	2.78414292E-9
332.89	2.74333397E-9
333.25	2.78255487E-9
333.62	2.76476946E-9
333.98	2.73973360E-9
334.35	2.74941913E-9
334.71	2.75618250E-9
335.08	2.78004983E-9
335.44	2.70843894E-9
335.81	2.72567659E-9
336.17	2.71120020E-9
336.53	2.72202116E-9
336.9	2.70121377E-9
337.26	2.73000273E-9
337.63	2.67935871E-9
337.99	2.67656517E-9
338.36	2.67247278E-9
338.72	2.68913083E-9
339.08	2.69180631E-9
339.45	2.66332599E-9
339.81	2.63081050E-9
340.18	2.60313129E-9
340.54	2.60399266E-9
340.9	2.62572387E-9
341.27	2.61434284E-9
341.63	2.59988988E-9
341.99	2.58058565E-9
342.36	2.58528539E-9
342.72	2.59703427E-9
343.09	2.59449045E-9
343.45	2.58341164E-9
343.81	2.55759463E-9
344.18	2.54559858E-9
344.54	2.58146192E-9
344.9	2.55643810E-9
345.27	2.53638795E-9
345.63	2.55565790E-9
345.99	2.52438889E-9
346.36	2.53904103E-9
346.72	2.49440527E-9
347.08	2.50220589E-9
347.45	2.48027333E-9
347.81	2.48908633E-9
348.17	2.48970680E-9
348.54	2.46960759E-9
348.9	2.50355758E-9
349.26	2.47802036E-9
349.62	2.47571740E-9
349.99	2.49600719E-9
350.35	2.46452342E-9
350.71	2.42805714E-9
351.08	2.43419240E-9
351.44	2.42784659E-9
351.8	2.43603034E-9
352.16	2.45921051E-9
352.53	2.42912457E-9
352.89	2.43243789E-9
353.25	2.40105520E-9
353.61	2.42413253E-9
353.98	2.43511408E-9
354.34	2.45824855E-9
354.7	2.39032551E-9
355.06	2.42468491E-9
355.43	2.38289500E-9
355.79	2.40628257E-9
356.15	2.35420742E-9
356.51	2.38557662E-9
356.88	2.38252817E-9
357.24	2.37144852E-9
357.6	2.36824849E-9
357.96	2.37767784E-9
358.32	2.33648348E-9
358.69	2.33726841E-9
359.05	2.36519798E-9
359.41	2.33674044E-9
359.77	2.38073459E-9
360.13	2.35743300E-9
360.49	2.30217937E-9
360.86	2.33490422E-9
361.22	2.32131113E-9
361.58	2.30706534E-9
361.94	2.31062573E-9
362.3	2.27692774E-9
362.66	2.28776198E-9
363.03	2.28036604E-9
363.39	2.25865058E-9
363.75	2.29635140E-9
364.11	2.27402227E-9
364.47	2.31126581E-9
364.83	2.27177616E-9
365.19	2.25749094E-9
365.56	2.26080659E-9
365.92	2.26059495E-9
366.28	2.27807556E-9
366.64	2.25419376E-9
367	2.24293344E-9
367.36	2.26474612E-9
367.72	2.21842730E-9
368.08	2.23938605E-9
368.44	2.23745064E-9
368.8	2.25363378E-9
369.17	2.21966303E-9
369.53	2.24551588E-9
369.89	2.27942094E-9
370.25	2.21815125E-9
370.61	2.24194552E-9
370.97	2.24508062E-9
371.33	2.26741256E-9
371.69	2.22959796E-9
372.05	2.27677799E-9
372.41	2.23028156E-9
372.77	2.24803206E-9
373.13	2.21536843E-9
373.49	2.20876584E-9
373.85	2.25348521E-9
374.21	2.23758618E-9
374.57	2.19842659E-9
374.93	2.22765886E-9
375.29	2.21777307E-9
375.65	2.19930050E-9
376.01	2.18984372E-9
376.37	2.19345579E-9
376.73	2.18269341E-9
377.09	2.18536158E-9
377.45	2.20385477E-9
377.81	2.15038273E-9
378.17	2.15209200E-9
378.53	2.15783245E-9
378.89	2.15846186E-9
379.25	2.12062590E-9
379.61	2.14295695E-9
379.97	2.17361261E-9
380.33	2.17476618E-9
380.69	2.12775076E-9
381.05	2.13353828E-9
381.41	2.16502577E-9
381.77	2.17097227E-9
382.13	2.13503130E-9
382.49	2.13700248E-9
382.85	2.18765032E-9
383.21	2.16099946E-9
383.57	2.16310448E-9
383.93	2.16092264E-9
384.28	2.18752284E-9
384.64	2.16027699E-9
385	2.17237146E-9
385.36	2.18430941E-9
385.72	2.17453217E-9
386.08	2.17707160E-9
386.44	2.16052567E-9
386.8	2.20073402E-9
387.16	2.16852424E-9
387.52	2.18773620E-9
387.87	2.14561413E-9
388.23	2.12520567E-9
388.59	2.13098494E-9
388.95	2.14590240E-9
389.31	2.09125637E-9
389.67	2.11832993E-9
390.03	2.12867985E-9
390.38	2.11876036E-9
390.74	2.14564144E-9
391.1	2.14277716E-9
391.46	2.11065981E-9
391.82	2.13366486E-9
392.18	2.11091483E-9
392.54	2.13657851E-9
392.89	2.12551545E-9
393.25	2.06969236E-9
393.61	2.07224881E-9
393.97	2.09598614E-9
394.33	2.10068592E-9
394.68	2.11060328E-9
395.04	2.08101803E-9
395.4	2.09473621E-9
395.76	2.11301901E-9
396.12	2.06501941E-9
396.47	2.07634706E-9
396.83	2.10295397E-9
397.19	2.07011748E-9
397.55	2.07259745E-9
397.9	2.08607053E-9
398.26	2.07218961E-9
398.62	2.03778210E-9
398.98	2.04020453E-9
399.33	2.06284151E-9
399.69	2.03077557E-9
400.05	1.88246982E-9
400.41	1.83281260E-9
400.76	1.91304842E-9
401.12	1.87192226E-9
401.48	1.92210638E-9
401.84	1.85427951E-9
402.19	1.85303174E-9
402.55	1.93781742E-9
402.91	1.95020115E-9
403.26	1.91746039E-9
403.62	1.95066219E-9
403.98	1.93076184E-9
404.34	1.86959149E-9
404.69	1.86222341E-9
405.05	1.97017054E-9
405.41	1.89724945E-9
405.76	1.88848399E-9
406.12	1.90279498E-9
406.48	1.87538295E-9
406.83	1.91223111E-9
407.19	1.92529111E-9
407.55	1.91914221E-9
407.9	1.82919747E-9
408.26	1.91355490E-9
408.62	1.87634266E-9
408.97	1.95726404E-9
409.33	1.83975160E-9
409.68	1.89034283E-9
410.04	1.91978184E-9
410.4	1.88720948E-9
410.75	1.82318808E-9
411.11	1.88206689E-9
411.47	1.83645587E-9
411.82	1.83878281E-9
412.18	1.95023675E-9
412.53	1.89288496E-9
412.89	1.85768585E-9
413.25	1.88730073E-9
413.6	1.96279447E-9
413.96	1.88862034E-9
414.31	1.86626228E-9
414.67	1.83655241E-9
415.03	1.84120364E-9
415.38	1.88961871E-9
415.74	1.84750183E-9
416.09	1.97863055E-9
416.45	1.84486134E-9
416.8	1.81923004E-9
417.16	1.81539503E-9
417.51	1.82306698E-9
417.87	1.88497905E-9
418.23	1.87466520E-9
418.58	1.85779982E-9
418.94	1.87340619E-9
419.29	1.74749111E-9
419.65	1.87044378E-9
420	1.86762941E-9
420.36	1.89486377E-9
420.71	1.90469348E-9
421.07	1.90372694E-9
421.42	1.83714514E-9
421.78	1.90391674E-9
422.13	1.89262116E-9
422.49	1.92849392E-9
422.84	1.96332041E-9
423.2	1.91723571E-9
423.55	1.88755981E-9
423.91	1.86721293E-9
424.26	1.87953237E-9
424.61	1.94904358E-9
424.97	1.94741858E-9
425.32	1.91777208E-9
425.68	1.92477724E-9
426.03	1.90174026E-9
426.39	1.98143100E-9
426.74	1.97506031E-9
427.1	1.87964667E-9
427.45	1.87549050E-9
427.8	1.92608081E-9
428.16	1.89716803E-9
428.51	1.90590548E-9
428.87	1.89834341E-9
429.22	1.87845565E-9
429.58	1.88047977E-9
429.93	1.87596830E-9
430.28	1.93769803E-9
430.64	1.89819732E-9
430.99	1.88393983E-9
431.35	1.90730687E-9
431.7	1.83136149E-9
432.05	1.87616486E-9
432.41	1.90151734E-9
432.76	1.84913567E-9
433.11	1.87293634E-9
433.47	1.82581104E-9
433.82	1.84376046E-9
434.17	1.82872497E-9
434.53	1.87641731E-9
434.88	1.82102775E-9
435.24	1.79305725E-9
435.59	1.85427491E-9
435.94	1.86050419E-9
436.3	1.85875870E-9
436.65	1.88178638E-9
437	1.83851658E-9
437.35	1.83360879E-9
437.71	1.80252853E-9
438.06	1.80937699E-9
438.41	1.77325593E-9
438.77	1.83183505E-9
439.12	1.82797907E-9
439.47	1.85039237E-9
439.83	1.77642405E-9
440.18	1.83202056E-9
440.53	1.82187235E-9
440.88	1.80182159E-9
441.24	1.79109736E-9
441.59	1.86094959E-9
441.94	1.81913144E-9
442.3	1.76823730E-9
442.65	1.82838122E-9
443	1.79858721E-9
443.35	1.82947431E-9
443.71	1.80122615E-9
444.06	1.82448978E-9
444.41	1.84876246E-9
444.76	1.82340795E-9
445.11	1.82777698E-9
445.47	1.85867661E-9
445.82	1.82565424E-9
446.17	1.81930218E-9
446.52	1.83683757E-9
446.88	1.82514401E-9
447.23	1.83666298E-9
447.58	1.83278215E-9
447.93	1.78178368E-9
448.28	1.82008523E-9
448.63	1.80236927E-9
448.99	1.86647776E-9
449.34	1.84902510E-9
449.69	1.87352645E-9
450.04	1.85265340E-9
450.39	1.79648048E-9
450.74	1.87027403E-9
451.1	1.83912558E-9
451.45	1.85662038E-9
451.8	1.83796522E-9
452.15	1.86268059E-9
452.5	1.90661766E-9
452.85	1.83046371E-9
453.21	1.81132903E-9
453.56	1.94271577E-9
453.91	1.87538126E-9
454.26	1.89229080E-9
454.61	1.90303605E-9
454.96	1.88542445E-9
455.31	1.88043529E-9
455.66	1.88435670E-9
456.01	1.90726260E-9
456.36	1.84744587E-9
456.72	1.86518605E-9
457.07	1.90780413E-9
457.42	1.82427335E-9
457.77	1.90625687E-9
458.12	1.84700857E-9
458.47	1.86285883E-9
458.82	1.85086624E-9
459.17	1.82226770E-9
459.52	1.84716922E-9
459.87	1.80026277E-9
460.22	1.83179952E-9
460.57	1.78296368E-9
460.92	1.84815681E-9
461.27	1.79656032E-9
461.62	1.75837537E-9
461.97	1.77399856E-9
462.32	1.77399463E-9
462.67	1.74299557E-9
463.02	1.75522209E-9
463.38	1.77586924E-9
463.73	1.71773189E-9
464.08	1.70186950E-9
464.43	1.70190534E-9
464.78	1.73977305E-9
465.12	1.68829042E-9
465.47	1.70173552E-9
465.82	1.70106651E-9
466.17	1.67812103E-9
466.52	1.65711473E-9
466.87	1.63219770E-9
467.22	1.62247518E-9
467.57	1.62896221E-9
467.92	1.61976475E-9
468.27	1.58041224E-9
468.62	1.57531324E-9
468.97	1.58943432E-9
469.32	1.56635672E-9
469.67	1.55341885E-9
470.02	1.50546967E-9
470.37	1.54178690E-9
470.72	1.48210455E-9
471.07	1.47032503E-9
471.42	1.46395618E-9
471.76	1.47114154E-9
472.11	1.46431910E-9
472.46	1.43352495E-9
472.81	1.44025025E-9
473.16	1.39559174E-9
473.51	1.40645264E-9
473.86	1.36755646E-9
474.21	1.36481189E-9
474.56	1.32995312E-9
474.9	1.33438973E-9
475.25	1.32041974E-9
475.6	1.33134468E-9
475.95	1.32381306E-9
476.3	1.27615785E-9
476.65	1.30282224E-9
477	1.27326423E-9
477.34	1.25566553E-9
477.69	1.25093982E-9
478.04	1.23404130E-9
478.39	1.23365179E-9
478.74	1.20153625E-9
479.09	1.19251225E-9
479.43	1.17864340E-9
479.78	1.17638279E-9
480.13	1.15975367E-9
480.48	1.15171286E-9
480.83	1.13819731E-9
481.17	1.14167946E-9
481.52	1.12338753E-9
481.87	1.11179505E-9
482.22	1.10428150E-9
482.57	1.10355589E-9
482.91	1.09810851E-9
483.26	1.08265122E-9
483.61	1.08512859E-9
483.96	1.07505397E-9
484.3	1.08452958E-9
484.65	1.04889788E-9
485	1.05749830E-9
485.35	1.05595765E-9
485.69	1.04828807E-9
486.04	1.04822683E-9
486.39	1.01738827E-9
486.74	1.01629856E-9
487.08	1.03168652E-9
487.43	1.01705317E-9
487.78	1.01054051E-9
488.12	1.00520521E-9
488.47	1.00334578E-9
488.82	9.97072272E-10
489.17	9.88470308E-10
489.51	9.88752553E-10
489.86	9.79552716E-10
490.21	9.87300240E-10
490.55	9.71352423E-10
490.9	9.76790433E-10
491.25	9.67768369E-10
491.59	9.70475222E-10
491.94	9.69963473E-10
492.29	9.67371843E-10
492.63	9.72447064E-10
492.98	9.67884113E-10
493.33	9.54850981E-10
493.67	9.52478620E-10
494.02	9.51953984E-10
494.37	9.54282912E-10
494.71	9.54975882E-10
495.06	9.56877139E-10
495.4	9.53900198E-10
495.75	9.40468793E-10
496.1	9.57712024E-10
496.44	9.59450195E-10
496.79	9.50170011E-10
497.13	9.65490543E-10
497.48	9.56162919E-10
497.83	9.54002445E-10
498.17	9.58577320E-10
498.52	9.52648098E-10
498.86	9.58434829E-10
499.21	9.49494517E-10
499.56	9.54902424E-10
499.9	9.49801663E-10
500.25	9.56642705E-10
500.59	9.53574324E-10
500.94	9.53423056E-10
501.28	9.46416744E-10
501.63	9.58002505E-10
501.97	9.50277346E-10
502.32	9.52836579E-10
502.67	9.55633546E-10
503.01	9.63501693E-10
503.36	9.56288118E-10
503.7	9.53867304E-10
504.05	9.54101376E-10
504.39	9.61391087E-10
504.74	9.64969083E-10
505.08	9.53313443E-10
505.43	9.54867429E-10
505.77	9.44628891E-10
506.12	9.40441841E-10
506.46	9.49533483E-10
506.81	9.54151897E-10
507.15	9.45647418E-10
507.49	9.68154224E-10
507.84	9.51709955E-10
508.18	9.42724546E-10
508.53	9.47538220E-10
508.87	9.42920565E-10
509.22	9.48214859E-10
509.56	9.42500267E-10
509.91	9.46836938E-10
510.25	9.44221911E-10
510.6	9.35811024E-10
510.94	9.39733332E-10
511.28	9.46249854E-10
511.63	9.29747647E-10
511.97	9.33411571E-10
512.32	9.38715938E-10
512.66	9.44940384E-10
513	9.46779231E-10
513.35	9.41847703E-10
513.69	9.38080047E-10
514.04	9.24855376E-10
514.38	9.22154138E-10
514.72	9.19110243E-10
515.07	9.31241273E-10
515.41	9.22176057E-10
515.76	9.25971504E-10
516.1	9.16973993E-10
516.44	9.30305631E-10
516.79	9.26319571E-10
517.13	9.39736090E-10
517.47	9.20030336E-10
517.82	9.16956491E-10
518.16	9.19061164E-10
518.5	9.30107496E-10
518.85	9.12855383E-10
519.19	9.13440366E-10
519.53	9.10860594E-10
519.88	9.23484206E-10
520.22	9.14956686E-10
520.56	9.13701476E-10
520.91	9.17732441E-10
521.25	9.22193171E-10
521.59	9.26247121E-10
521.93	9.12661938E-10
522.28	9.22126243E-10
522.62	9.14490109E-10
522.96	9.24162371E-10
523.31	9.20913152E-10
523.65	9.15745475E-10
523.99	9.13066956E-10
524.33	9.15264157E-10
524.68	9.17803369E-10
525.02	9.25719089E-10
525.36	9.23974973E-10
525.7	9.22365973E-10
526.05	9.20206220E-10
526.39	9.23237774E-10
526.73	9.21372903E-10
527.07	9.11889073E-10
527.41	9.17820310E-10
527.76	9.19693253E-10
528.1	9.05570192E-10
528.44	9.19973605E-10
528.78	9.25239565E-10
529.12	9.20976807E-10
529.47	9.22057067E-10
529.81	9.33349588E-10
530.15	9.23548327E-10
530.49	9.28877943E-10
530.83	9.13752935E-10
531.18	9.30177463E-10
531.52	9.16495848E-10
531.86	9.21005126E-10
532.2	9.26509095E-10
532.54	9.27732492E-10
532.88	9.25705874E-10
533.22	9.23167583E-10
533.57	9.29166561E-10
533.91	9.31730650E-10
534.25	9.24100415E-10
534.59	9.18676887E-10
534.93	9.27741234E-10
535.27	9.33644648E-10
535.61	9.31530896E-10
535.95	9.29864219E-10
536.3	9.38468542E-10
536.64	9.31938776E-10
536.98	9.44400577E-10
537.32	9.32161424E-10
537.66	9.33926003E-10
538	9.29628188E-10
538.34	9.25653393E-10
538.68	9.26888166E-10
539.02	9.47321782E-10
539.36	9.36526393E-10
539.7	9.28734679E-10
540.04	9.39073709E-10
540.39	9.41852954E-10
540.73	9.32652210E-10
541.07	9.39816989E-10
541.41	9.41233040E-10
541.75	9.30719653E-10
542.09	9.37189109E-10
542.43	9.47895573E-10
542.77	9.30381710E-10
543.11	9.36843685E-10
543.45	9.37033565E-10
543.79	9.44091413E-10
544.13	9.47624602E-10
544.47	9.46566824E-10
544.81	9.46125871E-10
545.15	9.49182790E-10
545.49	9.46967626E-10
545.83	9.51939160E-10
546.17	9.39834348E-10
546.51	9.48974622E-10
546.85	9.51851145E-10
547.19	9.50803644E-10
547.53	9.53822156E-10
547.87	9.54828703E-10
548.21	9.48209343E-10
548.54	9.64217492E-10
548.88	9.46728184E-10
549.22	9.62449065E-10
549.56	9.52169621E-10
549.9	9.55386394E-10
550.24	9.52340543E-10
550.58	9.51620282E-10
550.92	9.57562339E-10
551.26	9.66691800E-10
551.6	9.58101354E-10
551.94	9.60258645E-10
552.28	9.63893892E-10
552.61	9.70474312E-10
552.95	9.66128657E-10
553.29	9.68822800E-10
553.63	9.70773952E-10
553.97	9.78161598E-10
554.31	9.72587528E-10
554.65	9.72601477E-10
554.99	9.83764531E-10
555.32	9.80347419E-10
555.66	9.81686588E-10
556	9.88084739E-10
556.34	9.77473422E-10
556.68	9.83397755E-10
557.02	9.79540622E-10
557.36	9.84463324E-10
557.69	9.96285972E-10
558.03	9.84290400E-10
558.37	9.87083879E-10
558.71	9.95353941E-10
559.05	9.93271738E-10
559.38	9.99724773E-10
559.72	9.94244094E-10
560.06	1.00222855E-9
560.4	1.00027289E-9
560.74	9.98434460E-10
561.07	1.01253038E-9
561.41	1.00976700E-9
561.75	1.00733348E-9
562.09	1.01949877E-9
562.42	1.01508055E-9
562.76	1.02379732E-9
563.1	1.02245984E-9
563.44	1.02639284E-9
563.77	1.01956386E-9
564.11	1.02820715E-9
564.45	1.02772944E-9
564.79	1.02679698E-9
565.12	1.03065307E-9
565.46	1.03344150E-9
565.8	1.04103419E-9
566.14	1.04425572E-9
566.47	1.04006015E-9
566.81	1.04507590E-9
567.15	1.04714437E-9
567.48	1.05381167E-9
567.82	1.05546273E-9
568.16	1.06276716E-9
568.49	1.05665624E-9
568.83	1.06076815E-9
569.17	1.05669294E-9
569.5	1.05958081E-9
569.84	1.06763765E-9
570.18	1.06662677E-9
570.51	1.07452111E-9
570.85	1.07775683E-9
571.19	1.07304020E-9
571.52	1.08310773E-9
571.86	1.08107836E-9
572.2	1.07991849E-9
572.53	1.08078687E-9
572.87	1.08528376E-9
573.21	1.09206512E-9
573.54	1.09427168E-9
573.88	1.10182438E-9
574.21	1.09450806E-9
574.55	1.10701866E-9
574.89	1.10090462E-9
575.22	1.10114359E-9
575.56	1.10967449E-9
575.89	1.10172650E-9
576.23	1.11088259E-9
576.57	1.11776179E-9
576.9	1.11608873E-9
577.24	1.11486660E-9
577.57	1.11902913E-9
577.91	1.13309795E-9
578.24	1.13141333E-9
578.58	1.12957337E-9
578.91	1.13596248E-9
579.25	1.13449643E-9
579.59	1.13971351E-9
579.92	1.13980834E-9
580.26	1.13978952E-9
580.59	1.14778285E-9
580.93	1.14746044E-9
581.26	1.16213758E-9
581.6	1.14755019E-9
581.93	1.15322260E-9
582.27	1.15407503E-9
582.6	1.16240901E-9
582.94	1.16977829E-9
583.27	1.15751673E-9
583.61	1.17073852E-9
583.94	1.17743924E-9
584.28	1.16863039E-9
584.61	1.17836233E-9
584.94	1.18720747E-9
585.28	1.17997014E-9
585.61	1.17850264E-9
585.95	1.18582052E-9
586.28	1.18450312E-9
586.62	1.19456282E-9
586.95	1.18246586E-9
587.29	1.18231826E-9
587.62	1.19733331E-9
587.95	1.19485239E-9
588.29	1.20310281E-9
588.62	1.19506908E-9
588.96	1.21252273E-9
589.29	1.21493279E-9
589.62	1.22078657E-9
589.96	1.21926035E-9
590.29	1.21600132E-9
590.63	1.21611014E-9
590.96	1.22336105E-9
591.29	1.23121498E-9
591.63	1.22413708E-9
591.96	1.23342392E-9
592.29	1.23397114E-9
592.63	1.23360088E-9
592.96	1.23590276E-9
593.3	1.23856678E-9
593.63	1.24577191E-9
593.96	1.25765012E-9
594.3	1.26102912E-9
594.63	1.25389547E-9
594.96	1.25724125E-9
595.3	1.27174476E-9
595.63	1.26859173E-9
595.96	1.25847705E-9
596.29	1.27519356E-9
596.63	1.27734821E-9
596.96	1.26994410E-9
597.29	1.26644014E-9
597.63	1.28237662E-9
597.96	1.28963923E-9
598.29	1.28529346E-9
598.63	1.28786059E-9
598.96	1.29972097E-9
599.29	1.28984340E-9
599.62	1.29098463E-9
599.96	1.29564369E-9
600.29	1.30329290E-9
600.62	1.30694815E-9
600.95	1.29656892E-9
601.29	1.31571140E-9
601.62	1.30617650E-9
601.95	1.31921763E-9
602.28	1.31146910E-9
602.61	1.32217178E-9
602.95	1.32370536E-9
603.28	1.32668652E-9
603.61	1.34625429E-9
603.94	1.34040445E-9
604.27	1.34814152E-9
604.61	1.34633092E-9
604.94	1.35204421E-9
605.27	1.35695964E-9
605.6	1.36992306E-9
605.93	1.36234899E-9
606.27	1.36466075E-9
606.6	1.37432189E-9
606.93	1.36355980E-9
607.26	1.39002346E-9
607.59	1.40289748E-9
607.92	1.39232145E-9
608.26	1.40554380E-9
608.59	1.40023495E-9
608.92	1.40722780E-9
609.25	1.41200847E-9
609.58	1.41403378E-9
609.91	1.41206250E-9
610.24	1.41705165E-9
610.57	1.41448760E-9
610.9	1.43187291E-9
611.24	1.44750899E-9
611.57	1.44403460E-9
611.9	1.43449512E-9
612.23	1.44828782E-9
612.56	1.44108718E-9
612.89	1.44801271E-9
613.22	1.47894967E-9
613.55	1.46634270E-9
613.88	1.48770294E-9
614.21	1.47496821E-9
614.54	1.49537983E-9
614.87	1.49549310E-9
615.2	1.51207540E-9
615.53	1.49974908E-9
615.87	1.51944590E-9
616.2	1.51772683E-9
616.53	1.51738847E-9
616.86	1.53468893E-9
617.19	1.52758099E-9
617.52	1.54562292E-9
617.85	1.55554107E-9
618.18	1.55401994E-9
618.51	1.57427944E-9
618.84	1.58159444E-9
619.17	1.56369531E-9
619.5	1.58888539E-9
619.83	1.59240416E-9
620.16	1.60308169E-9
620.49	1.61073061E-9
620.82	1.62059398E-9
621.14	1.62172928E-9
621.47	1.63286493E-9
621.8	1.63609823E-9
622.13	1.64145020E-9
622.46	1.66291111E-9
622.79	1.65584446E-9
623.12	1.66267689E-9
623.45	1.65974243E-9
623.78	1.67912056E-9
624.11	1.67753869E-9
624.44	1.67558269E-9
624.77	1.70018446E-9
625.1	1.68042095E-9
625.43	1.70156040E-9
625.75	1.69747912E-9
626.08	1.67843274E-9
626.41	1.69932892E-9
626.74	1.71781453E-9
627.07	1.69403251E-9
627.4	1.70601016E-9
627.73	1.72365308E-9
628.06	1.73336515E-9
628.38	1.71218725E-9
628.71	1.72679244E-9
629.04	1.71847945E-9
629.37	1.73244226E-9
629.7	1.72369633E-9
630.03	1.72916219E-9
630.36	1.71706890E-9
630.68	1.73161713E-9
631.01	1.72664451E-9
631.34	1.73554426E-9
631.67	1.73340824E-9
632	1.72211001E-9
632.32	1.71376883E-9
632.65	1.73961675E-9
632.98	1.73452907E-9
633.31	1.70937716E-9
633.64	1.73098410E-9
633.96	1.72269912E-9
634.29	1.73241885E-9
634.62	1.73002914E-9
634.95	1.71872950E-9
635.27	1.73329846E-9
635.6	1.76296924E-9
635.93	1.73153079E-9
636.26	1.72418061E-9
636.58	1.72051481E-9
636.91	1.73897211E-9
637.24	1.74180908E-9
637.57	1.73545764E-9
637.89	1.73280304E-9
638.22	1.73083224E-9
638.55	1.74751975E-9
638.87	1.73186297E-9
639.2	1.74455497E-9
639.53	1.73308162E-9
639.86	1.74981462E-9
640.18	1.76515156E-9
640.51	1.75333167E-9
640.84	1.74409465E-9
641.16	1.74882286E-9
641.49	1.76259590E-9
641.82	1.76298804E-9
642.14	1.77209430E-9
642.47	1.79296250E-9
642.8	1.76689190E-9
643.12	1.76718439E-9
643.45	1.78577067E-9
643.78	1.78208291E-9
644.1	1.77704673E-9
644.43	1.78758527E-9
644.75	1.79852209E-9
645.08	1.79558739E-9
645.41	1.79985108E-9
645.73	1.79662214E-9
646.06	1.83416981E-9
646.39	1.80916948E-9
646.71	1.81538406E-9
647.04	1.82714262E-9
647.36	1.81487963E-9
647.69	1.84726053E-9
648.01	1.83669415E-9
648.34	1.86092985E-9
648.67	1.85555883E-9
648.99	1.84452061E-9
649.32	1.88470725E-9
649.64	1.86673280E-9
649.97	1.85925877E-9
650.29	1.88473350E-9
650.62	1.87796787E-9
650.94	1.89775803E-9
651.27	1.87752091E-9
651.59	1.90837376E-9
651.92	1.92278169E-9
652.25	1.89794530E-9
652.57	1.90921803E-9
652.9	1.91355092E-9
653.22	1.93936644E-9
653.55	1.95001462E-9
653.87	1.93998661E-9
654.2	1.94823731E-9
654.52	1.96293618E-9
654.84	1.98669230E-9
655.17	1.96764209E-9
655.49	1.97964532E-9
655.82	2.00369246E-9
656.14	2.00685318E-9
656.47	1.99604403E-9
656.79	2.00924788E-9
657.12	2.02548667E-9
657.44	2.03474076E-9
657.77	2.02787161E-9
658.09	2.04555062E-9
658.41	2.03630464E-9
658.74	2.06199987E-9
659.06	2.06985383E-9
659.39	2.05274723E-9
659.71	2.08314999E-9
660.03	2.07972339E-9
660.36	2.10243780E-9
660.68	2.10072249E-9
661.01	2.10528771E-9
661.33	2.13080215E-9
661.65	2.12979620E-9
661.98	2.12448726E-9
662.3	2.14502593E-9
662.63	2.16186736E-9
662.95	2.14971444E-9
663.27	2.19028118E-9
663.6	2.19548480E-9
663.92	2.19820622E-9
664.24	2.21851873E-9
664.57	2.21802342E-9
664.89	2.20248562E-9
665.21	2.22970788E-9
665.54	2.24399212E-9
665.86	2.25004927E-9
666.18	2.27593634E-9
666.51	2.26453528E-9
666.83	2.28430232E-9
667.15	2.29405522E-9
667.47	2.30341614E-9
667.8	2.31192409E-9
668.12	2.29024671E-9
668.44	2.34828468E-9
668.77	2.34569711E-9
669.09	2.36425212E-9
669.41	2.36380225E-9
669.73	2.39021935E-9
670.06	2.38145574E-9
670.38	2.39561911E-9
670.7	2.40345664E-9
671.02	2.40438432E-9
671.35	2.41192154E-9
671.67	2.43075319E-9
671.99	2.45316451E-9
672.31	2.46848508E-9
672.63	2.46213262E-9
672.96	2.51696589E-9
673.28	2.50199370E-9
673.6	2.52566840E-9
673.92	2.56177948E-9
674.24	2.55700553E-9
674.57	2.53044594E-9
674.89	2.55414099E-9
675.21	2.58022610E-9
675.53	2.58210542E-9
675.85	2.62776702E-9
676.17	2.61053713E-9
676.5	2.62982417E-9
676.82	2.66124868E-9
677.14	2.66023002E-9
677.46	2.63976503E-9
677.78	2.69827420E-9
678.1	2.70607501E-9
678.42	2.72329921E-9
678.75	2.69184303E-9
679.07	2.72039420E-9
679.39	2.71744971E-9
679.71	2.75316153E-9
680.03	2.76318939E-9
680.35	2.80123340E-9
680.67	2.78151207E-9
680.99	2.78084474E-9
681.31	2.81220357E-9
681.63	2.84527965E-9
681.96	2.84147247E-9
682.28	2.86063798E-9
682.6	2.88289038E-9
682.92	2.87805610E-9
683.24	2.90632665E-9
683.56	2.91667086E-9
683.88	2.93617950E-9
684.2	2.96798801E-9
684.52	2.94407050E-9
684.84	2.97947413E-9
685.16	3.02504536E-9
685.48	3.04258229E-9
685.8	3.03896141E-9
686.12	3.08513211E-9
686.44	3.04437016E-9
686.76	3.07089657E-9
687.08	3.09606176E-9
687.4	3.09399957E-9
687.72	3.13377682E-9
688.04	3.10820649E-9
688.36	3.14151953E-9
688.68	3.18602717E-9
689	3.13791400E-9
689.32	3.20717825E-9
689.64	3.19443333E-9
689.96	3.21555225E-9
690.28	3.24370757E-9
690.6	3.26233285E-9
690.92	3.20624500E-9
691.24	3.29194209E-9
691.56	3.30477321E-9
691.88	3.30973762E-9
692.19	3.34181981E-9
692.51	3.36393174E-9
692.83	3.39130355E-9
693.15	3.39786739E-9
693.47	3.41129005E-9
693.79	3.43382727E-9
694.11	3.49403209E-9
694.43	3.48180637E-9
694.75	3.43496219E-9
695.06	3.47114305E-9
695.38	3.45667485E-9
695.7	3.52361751E-9
696.02	3.49462709E-9
696.34	3.60597567E-9
696.66	3.57817932E-9
696.98	3.57663284E-9
697.29	3.61902475E-9
697.61	3.68695166E-9
697.93	3.69965827E-9
698.25	3.66090410E-9
698.57	3.75916687E-9
698.89	3.71672405E-9
699.2	3.71520571E-9
699.52	3.72063737E-9
699.84	3.72850980E-9
700.16	3.81297191E-9
700.48	3.81489212E-9
700.79	3.92225996E-9
701.11	3.89316513E-9
701.43	3.86155712E-9
701.75	3.88255311E-9
702.07	3.88818668E-9
702.38	3.95100423E-9
702.7	3.98345283E-9
703.02	3.94844473E-9
703.34	4.04567441E-9
703.65	4.02842465E-9
703.97	4.01134308E-9
704.29	4.05143297E-9
704.61	4.11729853E-9
704.92	4.09357257E-9
705.24	4.06197166E-9
705.56	4.14486685E-9
705.87	4.17477903E-9
706.19	4.17646460E-9
706.51	4.22336753E-9
706.82	4.24090545E-9
707.14	4.26122458E-9
707.46	4.30661836E-9
707.78	4.26088913E-9
708.09	4.35029378E-9
708.41	4.31960804E-9
708.73	4.36319137E-9
709.04	4.36473372E-9
709.36	4.29249122E-9
709.68	4.36824432E-9
709.99	4.40971936E-9
710.31	4.42071017E-9
710.62	4.47521077E-9
710.94	4.47177828E-9
711.26	4.50161040E-9
711.57	4.55434707E-9
711.89	4.65194702E-9
712.21	4.62043102E-9
712.52	4.62850793E-9
712.84	4.65488008E-9
713.15	4.74709966E-9
713.47	4.75381507E-9
713.79	4.76545721E-9
714.1	4.73779245E-9
714.42	4.80825013E-9
714.73	4.78172475E-9
715.05	4.85218628E-9
715.36	4.89562187E-9
715.68	4.93331212E-9
715.99	4.91458944E-9
716.31	4.86061669E-9
716.63	5.01607124E-9
716.94	4.99785053E-9
717.26	4.99526035E-9
717.57	5.02446729E-9
717.89	5.09519571E-9
718.2	5.05977271E-9
718.52	5.18851772E-9
718.83	5.24386666E-9
719.15	5.11802641E-9
719.46	5.35308610E-9
719.78	5.32801272E-9
720.09	5.34090309E-9
720.41	5.35109883E-9
720.72	5.39425318E-9
721.04	5.35106245E-9
721.35	5.39480954E-9
721.67	5.46949095E-9
721.98	5.56659400E-9
722.29	5.51551322E-9
722.61	5.50595165E-9
722.92	5.56942771E-9
723.24	5.76141808E-9
723.55	5.79635555E-9
723.87	5.71311810E-9
724.18	5.68967899E-9
724.5	5.80180606E-9
724.81	5.97394478E-9
725.12	5.86696350E-9
725.44	5.94238716E-9
725.75	5.95489234E-9
726.07	6.07708858E-9
726.38	5.97326154E-9
726.69	6.06397583E-9
727.01	6.14494551E-9
727.32	6.16958206E-9
727.63	6.13839950E-9
727.95	6.21929472E-9
728.26	6.24619371E-9
728.58	6.20340686E-9
728.89	6.39249386E-9
729.2	6.39296328E-9
729.52	6.38961128E-9
729.83	6.56464630E-9
730.14	6.64402417E-9
730.46	6.62179994E-9
730.77	6.55954622E-9
731.08	6.75930815E-9
731.39	6.77642022E-9
731.71	6.75742390E-9
732.02	6.77978152E-9
732.33	6.93426804E-9
732.65	6.96995785E-9
732.96	7.24034157E-9
733.27	7.23518833E-9
733.59	7.19163366E-9
733.9	7.19966843E-9
734.21	7.13069724E-9
734.52	7.23011715E-9
734.84	7.36451687E-9
735.15	7.38399646E-9
735.46	7.69427908E-9
735.77	7.65824428E-9
736.09	7.61323685E-9
736.4	7.67139032E-9
736.71	7.73171640E-9
737.02	7.86455197E-9
737.33	7.97552710E-9
737.65	7.93808047E-9
737.96	7.97162465E-9
738.27	8.02596224E-9
738.58	7.98946430E-9
738.89	8.32066883E-9
739.21	8.16395875E-9
739.52	8.29530688E-9
739.83	8.38402317E-9
740.14	8.45656193E-9
740.45	8.22035811E-9
740.76	8.32618922E-9
741.08	8.42331808E-9
741.39	8.29743708E-9
741.7	8.45018322E-9
742.01	8.38062729E-9
742.32	8.31225386E-9
742.63	8.32919713E-9
742.94	8.37629679E-9
743.26	8.41260964E-9
743.57	8.47025710E-9
743.88	8.59837028E-9
744.19	8.58268656E-9
744.5	8.51751944E-9
744.81	8.97131123E-9
745.12	8.68675469E-9
745.43	8.80691483E-9
745.74	8.55094220E-9
746.05	8.59828618E-9
746.36	8.52634561E-9
746.67	8.69775168E-9
746.99	8.80552956E-9
747.3	8.78878512E-9
747.61	8.63900137E-9
747.92	8.65314909E-9
748.23	8.55718903E-9
748.54	8.62088295E-9
748.85	8.72632570E-9
749.16	8.45825493E-9
749.47	8.71203399E-9
749.78	8.75533517E-9
750.09	8.83212689E-9
750.4	8.81332986E-9
750.71	8.67658805E-9
751.02	8.82103667E-9
751.33	8.83707492E-9
751.64	8.74225027E-9
751.95	8.64113004E-9
752.26	8.75481061E-9
752.57	8.98906341E-9
752.88	8.94964220E-9
753.19	8.72135461E-9
753.5	8.86482330E-9
753.81	9.02565156E-9
754.11	8.94282829E-9
754.42	9.00390593E-9
754.73	9.01111367E-9
755.04	8.98220046E-9
755.35	9.05825291E-9
755.66	8.91783336E-9
755.97	8.96043014E-9
756.28	9.38894217E-9
756.59	9.15723386E-9
756.9	9.06105037E-9
757.21	9.25843100E-9
757.52	9.20695052E-9
757.82	9.34415324E-9
758.13	9.28210505E-9
758.44	9.45103317E-9
758.75	9.28313152E-9
759.06	9.32488385E-9
759.37	9.29363044E-9
759.68	9.61792824E-9
759.98	9.51586230E-9
760.29	9.69078918E-9
760.6	9.57905022E-9
760.91	9.62932487E-9
761.22	9.78483569E-9
761.53	9.81792439E-9
761.83	9.99926597E-9
762.14	1.01643981E-8
762.45	9.94879653E-9
762.76	9.89988015E-9
763.07	9.78547941E-9
763.37	1.02934626E-8
763.68	1.03627269E-8
763.99	1.04017482E-8
764.3	1.02083687E-8
764.6	1.04371415E-8
764.91	1.08757817E-8
765.22	1.06495265E-8
765.53	1.07283580E-8
765.84	1.07469272E-8
766.14	1.08245113E-8
766.45	1.07816061E-8
766.76	1.07137421E-8
767.06	1.10771821E-8
767.37	1.09261809E-8
767.68	1.09848528E-8
767.99	1.12238150E-8
768.29	1.16344570E-8
768.6	1.14650539E-8
768.91	1.17432932E-8
769.21	1.16387184E-8
769.52	1.12680156E-8
769.83	1.15598195E-8
770.13	1.19540129E-8
770.44	1.22003925E-8
770.75	1.23224494E-8
771.05	1.22301550E-8
771.36	1.19957754E-8
771.67	1.21685131E-8
771.97	1.24776663E-8
772.28	1.26538662E-8
772.59	1.26154116E-8
772.89	1.28420881E-8
773.2	1.28600051E-8
773.51	1.29581817E-8
773.81	1.32890770E-8
774.12	1.32006240E-8
774.42	1.33933574E-8
774.73	1.33851422E-8
775.04	1.36764085E-8
775.34	1.39041036E-8
775.65	1.37574515E-8
775.95	1.38357509E-8
776.26	1.34536451E-8
776.56	1.42868960E-8
776.87	1.45028191E-8
777.18	1.42453653E-8
777.48	1.51269081E-8
777.79	1.46667896E-8
778.09	1.45958767E-8
778.4	1.51632622E-8
778.7	1.53750754E-8
779.01	1.50960503E-8
779.31	1.51146625E-8
779.62	1.53045232E-8
779.92	1.51970070E-8
780.23	1.53324055E-8
780.53	1.59749111E-8
780.84	1.58686146E-8
781.14	1.62133615E-8
781.45	1.65078876E-8
781.75	1.65355460E-8
782.06	1.62650978E-8
782.36	1.63092640E-8
782.67	1.65354756E-8
782.97	1.67862398E-8
783.28	1.69009400E-8
783.58	1.72268486E-8
783.89	1.79619726E-8
784.19	1.77246879E-8
784.49	1.79563752E-8
784.8	1.82443968E-8
785.1	1.82198310E-8
785.41	1.81168435E-8
785.71	1.81352463E-8
786.02	1.82252533E-8
786.32	1.90874717E-8
786.62	1.88736532E-8
786.93	1.91357159E-8
787.23	1.97193444E-8
787.54	1.94420678E-8
787.84	1.92123888E-8
788.14	2.03129233E-8
788.45	1.95127035E-8
788.75	1.99543839E-8
789.05	2.05339503E-8
789.36	2.01281698E-8
789.66	1.98907686E-8
789.96	2.02870569E-8
790.27	2.14460454E-8
790.57	2.14508635E-8
790.87	2.09233994E-8
791.18	2.15102362E-8
791.48	2.13271954E-8
791.78	2.21145165E-8
792.09	2.10179988E-8
792.39	2.18537156E-8
792.69	2.27359423E-8
793	2.26855046E-8
793.3	2.26242924E-8
793.6	2.33219670E-8
793.9	2.33388884E-8
794.21	2.27725042E-8
794.51	2.22971451E-8
794.81	2.40425013E-8
795.11	2.35132089E-8
795.42	2.44963404E-8
795.72	2.39349409E-8
796.02	2.47812032E-8
796.32	2.53258892E-8
796.63	2.59525065E-8
796.93	2.58862213E-8
797.23	2.60658046E-8
797.53	2.54177377E-8
797.84	2.57179350E-8
798.14	2.69578699E-8
798.44	2.63545924E-8
798.74	2.55801302E-8
799.04	2.65313831E-8
799.34	2.75882182E-8
799.65	2.94945330E-8
799.95	2.85280666E-8
800.25	2.73804595E-8
800.55	2.93478036E-8
800.85	2.95774452E-8
801.15	2.90509912E-8
801.46	3.09422555E-8
801.76	3.05450515E-8
802.06	3.04923223E-8
802.36	2.89876050E-8
802.66	2.98068730E-8
802.96	3.04143022E-8
803.26	3.06403511E-8
803.56	3.08696952E-8
803.87	3.08362242E-8
804.17	3.10067162E-8
804.47	3.12622407E-8
804.77	3.22373295E-8
805.07	3.27402817E-8
805.37	3.32825539E-8
805.67	3.45152189E-8
805.97	3.52761475E-8
806.27	3.28860546E-8
806.57	3.49773133E-8
806.87	3.49856483E-8
807.17	3.52302755E-8
807.47	3.47178172E-8
807.77	3.62814586E-8
808.07	3.53617789E-8
808.37	3.55307279E-8
808.67	3.71688033E-8
808.98	3.70606415E-8
809.28	3.77236624E-8
809.58	3.92434493E-8
809.88	3.82637565E-8
810.18	3.90672050E-8
810.47	3.99047294E-8
810.77	3.75891596E-8
811.07	4.01970064E-8
811.37	3.94331420E-8
811.67	4.10220687E-8
811.97	4.00902627E-8
812.27	4.02715465E-8
812.57	4.56188139E-8
812.87	4.28146709E-8
813.17	4.39829662E-8
813.47	4.60993361E-8
813.77	4.24620145E-8
814.07	4.42641455E-8
814.37	4.53813350E-8
814.67	4.47482390E-8
814.97	4.66137628E-8
815.27	4.56357293E-8
815.56	4.50389724E-8
815.86	4.91718009E-8
816.16	4.83800310E-8
816.46	4.74705267E-8
816.76	4.65950858E-8
817.06	4.95844473E-8
817.36	4.78925535E-8
817.66	5.04562007E-8
817.95	5.04697112E-8
818.25	5.13028083E-8
818.55	5.02294292E-8
818.85	5.26993534E-8
819.15	5.38505178E-8
819.45	5.10271461E-8
819.75	5.65098067E-8
820.04	5.89097790E-8
820.34	5.83469032E-8
820.64	5.57600117E-8
820.94	5.73229611E-8
821.24	6.06300942E-8
821.53	6.02627475E-8
821.83	5.66873386E-8
822.13	6.27626677E-8
822.43	5.88955241E-8
822.72	5.93530192E-8
823.02	6.46061283E-8
823.32	6.70822103E-8
823.62	6.95504819E-8
823.91	6.52819855E-8
824.21	6.72350884E-8
824.51	6.62271742E-8
824.81	6.65237280E-8
825.1	6.49136338E-8
825.4	6.71245984E-8
825.7	6.65825932E-8
826	6.80255140E-8
826.29	6.86324202E-8
826.59	7.01651699E-8
826.89	6.86736492E-8
827.18	7.15738061E-8
827.48	6.98186992E-8
827.78	7.31504278E-8
828.07	7.35100083E-8
828.37	7.57432218E-8
828.67	7.32178634E-8
828.96	8.16001962E-8
829.26	7.40559725E-8
829.56	8.02833839E-8
829.85	8.01742702E-8
830.15	8.08757416E-8
830.45	8.61301333E-8
830.74	9.10620919E-8
831.04	8.04104350E-8
831.34	9.00945713E-8
831.63	8.33955787E-8
831.93	8.59595180E-8
832.22	9.03514259E-8
832.52	9.19361719E-8
832.82	8.33593569E-8
833.11	9.81921470E-8
833.41	9.82245463E-8
833.7	9.40351100E-8
834	9.86926195E-8
834.29	1.09000213E-7
834.59	1.05921460E-7
834.89	1.04126369E-7
835.18	1.03937131E-7
835.48	1.10649596E-7
835.77	1.07482617E-7
836.07	1.17460444E-7
836.36	1.07079527E-7
836.66	1.21380823E-7
836.95	1.06916696E-7
837.25	1.17623366E-7
837.54	1.13521452E-7
837.84	1.17420273E-7
838.13	1.21899863E-7
838.43	1.13641828E-7
838.72	1.27109374E-7
839.02	1.12927749E-7
839.31	1.12183839E-7
839.61	1.28256386E-7
839.9	1.21550102E-7
840.2	1.29376399E-7
840.49	1.35569528E-7
840.78	1.51724110E-7
841.08	1.40781515E-7
841.37	1.30963919E-7
841.67	1.35770081E-7
841.96	1.36968587E-7
842.26	1.44768133E-7
842.55	1.48808631E-7
842.84	1.47065975E-7
843.14	1.47121870E-7
843.43	1.65138734E-7
843.73	1.39241717E-7
844.02	1.46847478E-7
844.31	1.38557420E-7
844.61	1.51525308E-7
844.9	1.64899239E-7
845.2	1.62223552E-7
845.49	1.69612821E-7
845.78	1.95471142E-7
846.08	1.62415842E-7
846.37	2.09002741E-7
846.66	1.58337234E-7
846.96	1.67622809E-7
847.25	1.82028277E-7
847.54	1.86967346E-7
847.84	1.83540730E-7
848.13	1.99290235E-7
848.42	2.04356307E-7
848.72	1.82400457E-7
849.01	1.90996209E-7
849.3	2.21200102E-7
849.59	1.79952066E-7
849.89	2.19408484E-7
850.18	2.05724610E-7
850.47	2.07548347E-7
850.76	1.76379317E-7
851.06	2.19780334E-7
851.35	2.51284969E-7
851.64	2.18991141E-7
851.93	2.48960870E-7
852.23	2.54204075E-7
852.52	2.03871988E-7
852.81	2.10933945E-7
853.1	2.55855735E-7
853.4	2.12025156E-7
853.69	2.21630746E-7
853.98	2.38867350E-7
854.27	2.70314297E-7
854.56	2.67511246E-7
854.86	2.50059261E-7
855.15	2.31467174E-7
855.44	2.67871919E-7
855.73	2.72410562E-7
856.02	2.61059089E-7
856.31	2.93632061E-7
856.61	3.67751824E-7
856.9	2.75940335E-7
857.19	3.04859570E-7
857.48	3.52588970E-7
857.77	3.52752230E-7
858.06	3.71352005E-7
858.35	2.73540422E-7
858.65	3.07454498E-7
858.94	3.17394801E-7
859.23	3.19579626E-7
859.52	3.21793174E-7
859.81	3.44148582E-7
860.1	4.75478365E-7
860.39	3.20185856E-7
860.68	3.47033609E-7
860.97	4.03199727E-7
861.26	3.59861675E-7
861.55	3.65290942E-7
861.85	3.79310792E-7
862.14	3.68332859E-7
862.43	4.64051774E-7
862.72	3.97952322E-7
863.01	3.19531663E-7
863.3	3.98341484E-7
863.59	3.17820631E-7
863.88	4.25765838E-7
864.17	4.15414498E-7
864.46	4.15619962E-7
864.75	4.79190017E-7
865.04	4.37738810E-7
865.33	5.08737869E-7
865.62	4.75379331E-7
865.91	3.90817387E-7
866.2	4.75856134E-7
866.49	5.20269386E-7
866.78	4.31551994E-7
867.07	3.74200803E-7
867.36	4.39501785E-7
867.65	4.63930034E-7
867.93	9.19892966E-7
868.22	5.06199233E-7
868.51	4.05166430E-7
868.8	7.13686679E-7
869.09	4.78280888E-7
869.38	8.05140687E-7
869.67	4.45175624E-7
869.96	4.45405679E-7
870.25	4.45405679E-7
